#Please wait 4[s]#Please wait 3[s]#Please wait 2[s]#Please wait 1[s]#Please wait 0[s]
-443.885925  2.000000 -3.958131 -980.517273 -1.110589  0.956744  2.000000 -1.982431  0.000000
-444.337555  2.000000 -3.001863 -919.287720 -1.097159  0.926467  2.000000 -1.998581  0.000000
-444.762146  2.000000 -4.104084 -852.192566 -1.080178  0.890232  2.000000 -1.999971  0.000000
-445.185730  3.000000 -1.837260 -800.450745 -1.067045  0.863643  2.000000 -2.000014  0.000000
-446.038147  3.000000 -2.449375 -715.580627 -1.040601  0.809264  2.000000 -2.000059  0.000000
-447.114868  2.000000 -2.993991 -631.707520 -1.001368  0.743867  2.000000 -2.000080  0.000000
-447.962250  3.000000 -2.954206 -578.861511 -0.969479  0.706577  2.000000 -2.000138  0.000000
-448.414734  3.000000 -3.002573 -557.824646 -0.955536  0.688932  2.000000 -2.000113  0.000000
-448.842712  2.000000 -4.089557 -540.408508 -0.942065  0.668477  2.000000 -2.000067  0.000000
-449.261993  1.000000  2.208679 -510.460144 -0.924874  0.635849  2.000000 -1.999952  0.000000
-449.714386 -1.000000  1.570993 -491.386444 -0.910290  0.606078  2.000000 -1.999920  0.000000
-450.561951 -5.000000 -1.840471 -441.143616 -0.879838  0.529905  2.000000 -1.999888  0.000000
-450.985840 -8.000000 18.231489 -426.399994 -0.866137  0.493643  2.000000 -1.999610  0.000000
-451.637634 -12.000000 15.033586 -406.305328 -0.847323  0.442500  1.000000 -1.083686  0.000000
-452.285919 -17.000000 13.130280 -388.369690 -0.825334  0.383777  1.000000 -1.007065  0.000000
-453.137848 -25.000000 37.392654 -385.027435 -0.801382  0.316906  1.000000 -1.000370  0.000000
-453.785797 -31.000000 34.109550 -381.898895 -0.780303  0.263889  1.000000 -1.000099  0.000000
-454.637512 -38.000000 30.486578 -385.463898 -0.755114  0.209960  1.000000 -1.000277  0.000000
-455.290253 -43.000000 56.236073 -386.166779 -0.730437  0.168088  1.000000 -0.999836  0.000000
-456.364044 -50.000000 53.034481 -393.039154 -0.689659  0.111448  1.000000 -1.000043  0.000000
-457.214600 -55.000000 51.308285 -394.584076 -0.660326  0.074974  1.000000 -1.000158  0.000000
-457.862091 -57.000000 63.039261 -387.673645 -0.636079  0.047441  1.000000 -0.999987  0.000000
-458.718475 -61.000000 62.009853 -391.137970 -0.612265  0.016891  1.000000 -1.000080  0.000000
-459.363007 -63.000000 61.251915 -390.492401 -0.592945 -0.001796  1.000000 -1.000140  0.000000
-460.437653 -64.000000 66.909782 -390.668549 -0.564717 -0.010427  0.000000 -0.083961  0.000000
-461.285828 -62.000000 64.377411 -383.537567 -0.539418 -0.002848  0.000000 -0.006982  0.000000
-461.942871 -60.000000 68.574913 -380.394623 -0.520612  0.010428  0.000000 -0.000372  0.000000
-462.785919 -54.000000 37.752308 -366.202759 -0.491740  0.043426  0.000000 -0.000471  0.000000
-463.862244 -46.000000 42.166218 -349.953613 -0.460773  0.091053  0.000000 -0.000372  0.000000
-464.937775 -38.000000 45.984077 -330.738312 -0.435392  0.134111  1.000000 -0.916242  0.000000
-465.585846 -33.000000 18.319893 -321.804565 -0.415284  0.165059  1.000000 -0.993474  0.000000
-466.439789 -26.000000 22.422514 -303.529907 -0.391376  0.199943  2.000000 -1.915695  0.000000
-467.514130 -17.000000 27.126829 -278.673615 -0.355072  0.242238  2.000000 -1.992671  0.000000
-468.590332 -8.000000 -13.855587 -257.488953 -0.315275  0.288496  2.000000 -1.999801  0.000000
-469.418640  1.000000 -6.951940 -230.756348 -0.288670  0.326425  2.000000 -2.000066  0.000000
-469.862549  4.000000 -9.725157 -225.578934 -0.277492  0.343596  2.000000 -2.000239  0.000000
-470.285919  7.000000 -3.664806 -206.976929 -0.272006  0.343663  3.000000 -2.916346  0.000000
-470.714722  6.000000 -5.000035 -201.823425 -0.267697  0.329189  3.000000 -2.993285  0.000000
-471.561920  1.000000 -8.661647 -199.303619 -0.256925  0.285577  4.000000 -3.915406  0.000000
-472.642609  1.000000  8.300295 -186.132874 -0.234831  0.268168  3.000000 -3.076802  0.000000
-473.514404 -1.000000  4.225801 -181.246292 -0.212063  0.245016  3.000000 -3.006757  0.000000
-474.161987 -2.000000  5.868903 -175.446304 -0.197374  0.228794  4.000000 -3.916921  0.000000
-475.214508 -3.000000 -0.318453 -173.699051 -0.174784  0.217973  5.000000 -4.909476  0.000000
-476.085907 -3.000000  1.448595 -170.682571 -0.156781  0.213861  5.000000 -4.992493  0.000000
-476.514709 -2.000000  0.691146 -170.442688 -0.148134  0.222003  5.000000 -4.999420  0.000000
-477.137756  3.000000 -7.343493 -158.216568 -0.134253  0.247493  4.000000 -4.083955  0.000000
-478.237610 13.000000 -10.600522 -143.177979 -0.109761  0.309723  4.000000 -4.007132  0.000000
-479.290161 24.000000 -0.206493 -126.269142 -0.088330  0.374961  4.000000 -4.000171  0.000000
-480.163879 33.000000 -74.114929 -114.682274 -0.066999  0.428642  4.000000 -4.000875  0.000000
-480.814331 40.000000 -54.984894 -104.298347 -0.044063  0.467103  4.000000 -4.000206  0.000000
-481.890320 49.000000 -60.288353 -91.695549 -0.015444  0.515250  3.000000 -3.084242  0.000000
-482.738403 53.000000 -43.237347 -80.264442 -0.005649  0.529670  3.000000 -3.006925  0.000000
-483.162689 55.000000 -50.081673 -84.517151  0.001701  0.547241  4.000000 -3.916495  0.000000
-483.814850 59.000000 -43.749798 -78.512566  0.011644  0.566663  3.000000 -3.076626  0.000000
-484.237762 61.000000 -83.230156 -72.411331  0.017181  0.573079  3.000000 -3.006943  0.000000
-484.885895 62.000000 -71.175903 -63.743675  0.023523  0.570604  4.000000 -3.916783  0.000000
-485.942871 62.000000 -78.813812 -56.188499  0.034418  0.562923  4.000000 -3.993281  0.000000
-486.814758 65.000000 -46.052380 -47.077515  0.042351  0.572614  2.000000 -2.166563  0.000000
-487.462433 67.000000 -58.349468 -49.305290  0.044850  0.587272  2.000000 -2.013677  0.000000
-488.514252 66.000000 -53.162888 -29.064465  0.054585  0.560619  3.000000 -2.917054  0.000000
-489.385834 58.000000 -64.180038  1.255485  0.065350  0.474336  4.000000 -3.909106  0.000000
-489.814911 51.000000 -56.606533  1.594892  0.067691  0.423490  4.000000 -3.992331  0.000000
-490.462311 40.000000 -69.320602  8.038807  0.070264  0.331181  4.000000 -3.999799  0.000000
-491.537964 24.000000 39.168037 -24.434576  0.074939  0.243193  2.000000 -2.166286  0.000000
-492.390167 15.000000  7.159359 -38.917763  0.083452  0.186647  2.000000 -2.013818  0.000000
-493.019073  8.000000 18.020975 -53.876690  0.085095  0.146965  3.000000 -2.916740  0.000000
-493.885773  5.000000 -37.467026 -65.256523  0.084408  0.136780  1.000000 -1.161481  0.000000
-494.314606  6.000000 -18.806526 -63.924782  0.088860  0.143625  1.000000 -1.013848  0.000000
-494.737671  7.000000 -27.300108 -63.257103  0.095666  0.151383  1.000000 -1.001696  0.000000
-495.585724  9.000000 17.393852 -58.749596  0.108058  0.162433  1.000000 -0.999779  0.000000
-496.663025  9.000000  1.559652 -48.452652  0.121731  0.148075  2.000000 -1.915956  0.000000
-497.514648  6.000000  6.764293 -48.182816  0.133306  0.121530  2.000000 -1.992646  0.000000
-497.962250  3.000000 -17.232573 -52.326908  0.144033  0.101057  2.000000 -1.999681  0.000000
-498.385834  1.000000 -7.470489 -51.823559  0.154817  0.082728  2.000000 -2.000062  0.000000
-498.814636 -3.000000 -14.740908 -61.533558  0.165367  0.061179  2.000000 -2.000377  0.000000
-499.685913 -11.000000 49.253727 -69.150597  0.175095  0.001071  2.000000 -1.999058  0.000000
-500.537872 -21.000000 32.114826 -92.151855  0.167100 -0.054847  2.000000 -1.999635  0.000000
-501.185791 -28.000000 35.090103 -97.482758  0.165666 -0.109035  1.000000 -1.083786  0.000000
-502.266327 -41.000000 49.658703 -116.507195  0.177716 -0.195253  2.000000 -1.923109  0.000000
-503.339478 -54.000000 52.394772 -137.507858  0.178772 -0.276023  2.000000 -1.993827  0.000000
-504.186005 -63.000000 45.713139 -142.115433  0.169524 -0.342561  1.000000 -1.083649  0.000000
-504.837585 -69.000000 104.229996 -149.323196  0.164894 -0.380181  1.000000 -1.006268  0.000000
-505.714569 -76.000000 86.997292 -155.439972  0.170409 -0.425402 -1.000000  0.831799  0.000000
-506.338165 -79.000000 92.966713 -157.082047  0.175703 -0.445381  0.000000  0.070013  0.000000
-507.185883 -79.000000 56.661118 -143.851059  0.180244 -0.460661  0.000000  0.005232  0.000000
-507.837524 -79.000000 70.606956 -138.822342  0.182705 -0.466409  0.000000  0.000167  0.000000
-508.485748 -79.000000 65.748703 -144.044846  0.187330 -0.460439  0.000000 -0.000321  0.000000
-509.342926 -79.000000 99.287086 -175.949387  0.194714 -0.423201 -1.000000  0.916402  0.000000
-509.985870 -74.000000 83.695564 -188.812454  0.203987 -0.369794  0.000000  0.076762  0.000000
-510.837708 -65.000000 96.267105 -180.452087  0.205798 -0.309358  1.000000 -0.909418  0.000000
-511.485931 -58.000000 -3.506897 -177.500122  0.210635 -0.255917  1.000000 -0.994171  0.000000
-512.337524 -47.000000 28.091406 -159.504654  0.220630 -0.187421  2.000000 -1.916297  0.000000
-512.985779 -38.000000 21.941608 -150.807968  0.228656 -0.121520  3.000000 -2.909634  0.000000
-513.839355 -26.000000 32.519005 -126.083282  0.241129 -0.050801  3.000000 -2.992258  0.000000
-514.485901 -18.000000 23.388065 -119.652382  0.253525  0.011034  4.000000 -3.915202  0.000000
-515.561890 -9.000000 32.327400 -96.695938  0.265677  0.058123  4.000000 -3.992512  0.000000
-516.639099 -11.000000 -23.706520 -93.885941  0.260699  0.036391  5.000000 -4.916263  0.000000
-517.485779 -12.000000 -1.248821 -101.543900  0.259740  0.038445  5.000000 -4.993217  0.000000
-518.114624 -9.000000 -7.862878 -97.312012  0.265218  0.059000  4.000000 -4.083834  0.000000
-518.985779 -3.000000 21.149817 -86.877602  0.270909  0.097154  5.000000 -4.923071  0.000000
-519.614380  3.000000  5.780620 -72.748024  0.271811  0.129841  5.000000 -4.993682  0.000000
-520.485901 11.000000 15.817770 -65.055733  0.276099  0.188391  5.000000 -4.999106  0.000000
-521.562134 22.000000 -84.544891 -49.038223  0.291914  0.259499  6.000000 -5.917621  0.000000
-521.985657 28.000000 -48.763191 -35.619942  0.299415  0.291104  6.000000 -5.993655  0.000000
-522.643066 35.000000 -57.857746 -29.189894  0.308198  0.339000  6.000000 -5.999901  0.000000
-523.062378 40.000000 -9.288007 -31.252850  0.312004  0.380485  6.000000 -5.999262  0.000000
-523.485901 46.000000 -32.876392 -19.809866  0.315728  0.411930  5.000000 -5.083588  0.000000
-524.137817 52.000000 -21.924240 -22.476622  0.323603  0.458866  5.000000 -5.006254  0.000000
-524.562012 57.000000 -115.653366 -25.781704  0.329507  0.497588  4.000000 -4.085499  0.000000
-525.214172 63.000000 -82.166763 -29.925085  0.334343  0.542177  4.000000 -4.007263  0.000000
-526.266541 73.000000 -88.592171 -49.287170  0.335759  0.623288  3.000000 -3.084658  0.000000
-527.339233 73.000000 -45.501102 -111.999695  0.335630  0.679887  3.000000 -3.006350  0.000000
-528.214539 73.000000 -63.338585 -130.357849  0.330428  0.695544  3.000000 -3.000330  0.000000
-528.838257 73.000000 -58.321358 -110.042419  0.329377  0.678194  3.000000 -2.999932  0.000000
-529.718567 75.000000 -102.791718 -18.505213  0.331114  0.605794  4.000000 -3.916894  0.000000
-530.362854 67.000000 -79.954552 10.874673  0.334185  0.525314  5.000000 -4.909552  0.000000
-531.414246 49.000000 -99.161095  9.902929  0.332849  0.398589  5.000000 -4.993458  0.000000
-532.285828 33.000000 81.975662  4.961649  0.318904  0.278617  5.000000 -4.997050  0.000000
-532.714172 25.000000 12.852285 -7.626529  0.309655  0.228892  6.000000 -5.915306  0.000000
-533.363098 15.000000 29.132273 -24.216805  0.287225  0.166294  5.000000 -5.075528  0.000000
-534.214478 11.000000 -80.540085 -47.871826  0.269074  0.164601  3.000000 -3.175321  0.000000
-534.862183 12.000000 -36.309402 -49.192326  0.269663  0.175063  2.000000 -2.099037  0.000000
-535.285767 12.000000 -50.899197 -48.885410  0.272202  0.174638  2.000000 -2.009285  0.000000
-535.937195 12.000000 56.181015 -44.884922  0.274923  0.169090  3.000000 -2.915659  0.000000
-536.366699 12.000000 11.957504 -39.430264  0.276301  0.161508  3.000000 -2.992726  0.000000
-536.785828 11.000000 25.359585 -42.382912  0.276861  0.156961  3.000000 -2.998759  0.000000
-537.214478 11.000000 -74.676445 -39.178604  0.277072  0.152492  3.000000 -3.001393  0.000000
-537.863525 10.000000 -32.772518 -37.428425  0.276432  0.139047  3.000000 -3.000544  0.000000
-538.485901  8.000000 -47.512726 -35.527157  0.276487  0.121221  3.000000 -3.000804  0.000000
-539.562073  2.000000 78.361633 -40.147934  0.274192  0.074980  3.000000 -2.998202  0.000000
-540.438416 -3.000000 29.351860 -43.629448  0.275258  0.035663  3.000000 -2.999542  0.000000
-540.862732 -6.000000 43.069912 -40.572708  0.278541  0.004662  3.000000 -2.999409  0.000000
-541.514404 -11.000000 -45.831249 -43.599384  0.279194 -0.035416  3.000000 -3.001333  0.000000
-542.162048 -17.000000 -4.934164 -47.460163  0.273817 -0.083023  3.000000 -3.000615  0.000000
-543.014648 -23.000000 -21.123203 -51.399570  0.260774 -0.130146  3.000000 -3.000978  0.000000
-543.662598 -26.000000 109.468361 -51.546951  0.248168 -0.156046  3.000000 -2.998238  0.000000
-544.514282 -31.000000 58.358963 -55.489674  0.233856 -0.193651  2.000000 -2.083526  0.000000
-545.162170 -34.000000 72.904114 -48.064590  0.221175 -0.229263  3.000000 -2.922349  0.000000
-546.242859 -39.000000 -21.770906 -59.147629  0.207228 -0.256193  2.000000 -2.078416  0.000000
-547.085938 -39.000000 17.943432 -51.076584  0.214053 -0.266951  1.000000 -1.090675  0.000000
-548.161987 -42.000000  4.355513 -46.825375  0.210832 -0.297137  0.000000 -0.092316  0.000000
-549.237427 -44.000000 114.248840 -40.046726  0.201142 -0.322037  0.000000 -0.006258  0.000000
-550.314575 -43.000000 67.791969 -29.348175  0.196737 -0.327785  0.000000 -0.000149  0.000000
-551.163574 -43.000000 82.690475 -23.993454  0.190194 -0.334626  0.000000  0.000648  0.000000
-551.814392 -43.000000 -28.578606 -23.230362  0.189733 -0.335598  0.000000 -0.001546  0.000000
-552.890198 -39.000000 15.680335 -13.738282  0.200194 -0.315876 -1.000000  0.915690  0.000000
-553.738220 -34.000000  5.445855 -6.214369  0.209906 -0.285162  0.000000  0.076336  0.000000
-554.385803 -30.000000 73.666191  0.917283  0.215045 -0.261667  0.000000  0.007355  0.000000
-555.237427 -26.000000 42.522160  5.174484  0.215864 -0.233990  0.000000  0.001012  0.000000
-555.914673 -22.000000 54.664650  9.955610  0.219730 -0.206660 -1.000000  0.916901  0.000000
-556.962708 -17.000000 -50.923325 17.103935  0.224747 -0.173681 -1.000000  0.991598  0.000000
-557.838013 -15.000000 -7.725452 17.995758  0.224845 -0.157638 -1.000000  0.999001  0.000000
-558.462219 -14.000000 -20.122467 17.497433  0.224092 -0.148265 -1.000000  0.999290  0.000000
-559.337830 -13.000000 72.407242 19.788895  0.221515 -0.142774 -1.000000  1.001080  0.000000
-559.966736 -12.000000 32.840088 21.563992  0.221568 -0.136549 -1.000000  1.000270  0.000000
-561.037842 -10.000000 46.194180 25.020731  0.220516 -0.123938  0.000000  0.084501  0.000000
-561.885986 -8.000000 -60.919392 24.882410  0.218792 -0.106211  0.000000  0.005495  0.000000
-562.537903 -6.000000 -17.042574 29.751749  0.219006 -0.095510  0.000000 -0.000019  0.000000
-563.590210 -3.000000 -28.607927 34.034023  0.216708 -0.075128  1.000000 -0.916813  0.000000
-564.463135 -1.000000 54.455818 30.654747  0.215343 -0.052627  1.000000 -0.991979  0.000000
-565.514709  3.000000 16.728573 37.737972  0.216094 -0.027255  1.000000 -0.999104  0.000000
-565.960876  4.000000 28.613443 35.773705  0.216231 -0.015571  1.000000 -0.999394  0.000000
-566.384827  6.000000 -68.383057 41.521755  0.216275 -0.006017  1.000000 -1.001415  0.000000
-566.819702  7.000000 -28.131990 40.478249  0.215468  0.004356  1.000000 -1.000613  0.000000
-567.685730 11.000000 -38.186932 46.104897  0.212601  0.031840  1.000000 -1.000861  0.000000
-568.538391 15.000000 27.153982 51.312283  0.210282  0.059873  2.000000 -1.915464  0.000000
-568.962036 18.000000 -2.567570 56.174034  0.212264  0.079481  2.000000 -1.992820  0.000000
-569.614075 22.000000  8.326493 63.668388  0.219265  0.104098  2.000000 -1.998850  0.000000
-570.043030 24.000000 -82.086525 63.819962  0.223516  0.121425  2.000000 -2.001186  0.000000
-570.666504 28.000000 -46.650166 68.221062  0.225192  0.150133  2.000000 -2.000440  0.000000
-571.538513 32.000000 -55.523010 71.580833  0.220665  0.180034  2.000000 -2.000563  0.000000
-572.185852 36.000000 -0.123614 76.834312  0.214846  0.207023  3.000000 -2.915409  0.000000
-573.261902 42.000000 -27.773787 82.210777  0.212454  0.250290  3.000000 -2.992866  0.000000
-574.314758 49.000000 -16.171659 90.194954  0.217821  0.297343  2.000000 -2.082724  0.000000
-575.185913 55.000000 -124.551666 86.009308  0.221097  0.350598  3.000000 -2.924386  0.000000
-575.814758 60.000000 -82.294678 88.542358  0.219708  0.386100  2.000000 -2.077795  0.000000
-576.685852 65.000000 -93.036034 86.900543  0.216900  0.425566  3.000000 -2.923079  0.000000
-577.318542 68.000000 -21.688478 91.367493  0.214413  0.442251  1.000000 -1.160420  0.000000
-578.185730 70.000000 -53.632446 87.250916  0.203828  0.461390  2.000000 -1.929284  0.000000
-578.837280 71.000000 -44.437981 83.201012  0.196860  0.473082  3.000000 -2.909600  0.000000
-579.262268 72.000000 -120.974869 84.182930  0.193150  0.478992  3.000000 -2.993487  0.000000
-579.914490 72.000000 -88.959579 78.872597  0.188509  0.484948  2.000000 -2.083547  0.000000
-580.962219 71.000000 -100.108139 67.510735  0.182333  0.490682  1.000000 -1.091346  0.000000
-581.837524 70.000000 -14.539364 60.913883  0.174415  0.491103  3.000000 -2.838589  0.000000
-582.262390 70.000000 -51.206745 63.141727  0.170039  0.488624  3.000000 -2.986112  0.000000
-582.914368 68.000000 -42.311275 53.671200  0.164809  0.485315  2.000000 -2.082213  0.000000
-583.966736 65.000000 -105.338036 43.174408  0.159532  0.476153  1.000000 -1.091682  0.000000
-584.837891 63.000000 -77.630814 41.214073  0.151481  0.464260  3.000000 -2.840033  0.000000
-585.485779 60.000000 -88.462486 30.762205  0.142602  0.454847  2.000000 -2.070892  0.000000
-586.562195 56.000000  3.572620 16.230240  0.134610  0.442856  1.000000 -1.088625  0.000000
-587.414612 54.000000 -34.435520  9.773079  0.132587  0.435859  1.000000 -1.007181  0.000000
-587.839539 53.000000 -24.249378  6.836842  0.130600  0.432000  2.000000 -1.916225  0.000000
-588.485901 51.000000 -98.941345 -0.377368  0.126797  0.425830  2.000000 -1.993987  0.000000
-588.914307 50.000000 -66.849136 -4.182318  0.124551  0.422967  2.000000 -1.999696  0.000000
-589.562256 48.000000 -78.191605 -12.881849  0.121209  0.418519  2.000000 -2.000423  0.000000
-590.618591 45.000000 15.744468 -25.985939  0.115449  0.411879  2.000000 -1.998717  0.000000
-591.485840 44.000000 -23.680622 -31.823879  0.109332  0.411423  1.000000 -1.083487  0.000000
-592.138367 43.000000 -12.925649 -37.358810  0.107976  0.410603  2.000000 -1.922458  0.000000
-593.214539 42.000000 -94.312454 -46.285648  0.103509  0.413851  2.000000 -1.994550  0.000000
-594.262695 40.000000 -58.647308 -57.881756  0.100051  0.412844  1.000000 -1.083716  0.000000
-595.137756 39.000000 -70.293526 -62.222412  0.098453  0.410591  1.000000 -1.007723  0.000000
-595.562256 38.000000 20.968643 -64.952011  0.096712  0.406394  1.000000 -0.999533  0.000000
-596.214417 36.000000 -16.604769 -73.007988  0.095152  0.401102  1.000000 -0.999908  0.000000
-597.290222 34.000000 -6.837904 -77.842072  0.089546  0.391861  3.000000 -2.831713  0.000000
-598.339050 32.000000 -77.326805 -88.625313  0.081535  0.389842  3.000000 -2.986880  0.000000
-599.214172 31.000000 -46.894382 -93.196503  0.084489  0.387827  3.000000 -2.999125  0.000000
-599.862122 31.000000 -56.345444 -93.377136  0.087439  0.388049  2.000000 -2.084329  0.000000
-600.718506 30.000000 18.102966 -99.936386  0.084212  0.388466  2.000000 -2.005970  0.000000
-601.362976 29.000000 -12.966947 -104.636909  0.081185  0.386607  2.000000 -2.000246  0.000000
-602.214783 27.000000 -5.076034 -112.758583  0.082374  0.381308  2.000000 -1.999538  0.000000
-602.862183 25.000000 -60.965965 -117.059708  0.083331  0.371256  2.000000 -2.000708  0.000000
-603.914490 21.000000 -34.680504 -132.016327  0.079841  0.358895  2.000000 -2.000126  0.000000
