#Please wait 4[s]#Please wait 3[s]#Please wait 2[s]#Please wait 1[s]#Please wait 0[s]
-332.163116 -1.000000  4.009762 -3.870739  0.104532  0.001819 89.000000 -88.197357  0.000000
-332.986603  0.000000  0.908700  2.151020  0.106048 -0.004302  2.000000 -9.186913  0.000000
-333.419342  0.000000  1.386197  3.052481  0.107468 -0.006105  2.000000 -2.601401  0.000000
-333.863495  0.000000 -1.330593  3.050931  0.108894 -0.006102  2.000000 -2.048888  0.000000
-334.286621  0.000000 -0.684862  2.602035  0.109752 -0.005204  2.000000 -2.002593  0.000000
-335.138214  0.000000 -1.463216  1.385982  0.108285 -0.002772  2.000000 -1.998777  0.000000
-336.215271  0.000000  1.539133  1.487427  0.106286 -0.002975  2.000000 -1.998277  0.000000
-337.063354  0.000000  0.735999  0.493457  0.106086 -0.000987  2.000000 -1.998329  0.000000
-338.138397  0.000000  1.358049 -0.169761  0.106564  0.000340  2.000000 -1.998226  0.000000
-339.215363  3.000000 -7.400589 -7.224067  0.097033  0.032205  1.000000 -1.082016  0.000000
-340.286560  9.000000 -8.235973 -10.759341  0.108788  0.074684  0.000000 -0.089013  0.000000
-341.164642 14.000000 -2.684371 -14.146315  0.115655  0.110755  0.000000 -0.005963  0.000000
-341.586792 16.000000 -29.765898 -16.036364  0.115812  0.126162  0.000000  0.000606  0.000000
-342.238403 20.000000 -24.792826 -16.456142  0.128365  0.150226  0.000000  0.001301  0.000000
-342.662720 22.000000 -27.559124 -19.597065  0.144734  0.167898  0.000000  0.001461  0.000000
-343.314240 26.000000 -24.328094 -18.569942  0.160641  0.188852 -1.000000  0.917885  0.000000
-344.386627 30.000000 -27.265963 -26.189808  0.186026  0.226126 -1.000000  0.994814  0.000000
-345.462952 34.000000 -20.925066 -29.223658  0.190946  0.254198 -2.000000  1.917390  0.000000
-346.319672 37.000000 -54.047779 -28.077135  0.190027  0.268639 -1.000000  1.078034  0.000000
-346.963745 38.000000 -45.757832 -30.097544  0.188593  0.277877 -1.000000  1.007807  0.000000
-347.815369 40.000000 -51.267136 -27.300333  0.180891  0.283648 -1.000000  1.002014  0.000000
-348.463348 41.000000 -29.922663 -27.260881  0.179794  0.289025 -1.000000  1.002017  0.000000
-349.515350 42.000000 -36.264118 -28.067942  0.172635  0.295936  0.000000  0.085736  0.000000
-350.386719 43.000000 -30.174368 -24.276125  0.163344  0.294415  0.000000  0.008918  0.000000
-350.815277 42.000000 -54.844929 -21.863947  0.163908  0.284544  0.000000  0.001929  0.000000
-351.462555 38.000000 -46.021748 -13.935518  0.172598  0.247737  1.000000 -0.914744  0.000000
-352.538147 25.000000 -65.380783 -4.595829  0.166376  0.155981  2.000000 -1.908480  0.000000
-353.590973 10.000000 51.436726  7.644735  0.138330  0.043909  3.000000 -2.905808  0.000000
-354.464874 -3.000000 25.670050 11.177610  0.125551 -0.049779  4.000000 -3.906270  0.000000
-354.886871 -9.000000 40.528088 15.635528  0.127882 -0.084374  4.000000 -3.990109  0.000000
-355.538574 -17.000000 -9.541071 13.356252  0.124492 -0.126716  3.000000 -3.082110  0.000000
-356.186493 -22.000000  7.321232 17.309994  0.116410 -0.163448  3.000000 -3.005617  0.000000
-357.039124 -29.000000 -11.846851 19.635433  0.110829 -0.207977  3.000000 -2.999785  0.000000
-357.686646 -35.000000 88.713432 22.806490  0.104213 -0.247713  2.000000 -2.081064  0.000000
-358.538788 -40.000000 62.401081 25.171091  0.106109 -0.279718  2.000000 -2.004880  0.000000
-359.186554 -44.000000 78.517563 25.156977  0.104048 -0.301438  1.000000 -1.082145  0.000000
-360.263123 -49.000000 14.302132 27.004364  0.092213 -0.331517  1.000000 -1.006410  0.000000
-361.115448 -52.000000 34.874638 26.381874  0.078733 -0.346213  2.000000 -1.915576  0.000000
-361.762726 -53.000000 19.571987 26.482193  0.070961 -0.351621  2.000000 -1.992220  0.000000
-362.615051 -54.000000 94.869331 24.732506  0.066426 -0.353755  2.000000 -1.997041  0.000000
-363.267365 -54.000000 72.414879 23.587135  0.064556 -0.351738  2.000000 -1.997965  0.000000
-364.338226 -53.000000 88.847862 22.347031  0.070177 -0.344312  2.000000 -1.997567  0.000000
-365.186707 -51.000000  4.869644 14.735458  0.074956 -0.320125  2.000000 -1.999130  0.000000
-365.838074 -47.000000 28.255167 10.850465  0.080627 -0.291518  1.000000 -1.082525  0.000000
-366.691040 -41.000000 17.906231 -1.549765  0.082611 -0.235290  1.000000 -1.005610  0.000000
-367.340240 -36.000000 58.304520 -6.633977  0.081069 -0.197346  1.000000 -0.998264  0.000000
-368.186707 -30.000000 42.457268 -13.989659  0.088281 -0.148598  1.000000 -0.998042  0.000000
-368.838562 -26.000000 55.792614 -17.865166  0.102763 -0.117713  1.000000 -0.997741  0.000000
-369.486633 -22.000000 -20.727148 -27.008858  0.118018 -0.076134  1.000000 -0.999174  0.000000
-370.343842 -15.000000 -0.567340 -31.545002  0.118978 -0.025745  1.000000 -0.998610  0.000000
-370.985748 -9.000000 -8.209224 -39.041573  0.122664  0.024774  1.000000 -0.998469  0.000000
-371.838318 -1.000000 12.916579 -41.192905  0.144304  0.076315  0.000000 -0.081650  0.000000
-372.262787  2.000000  4.384811 -47.634754  0.154216  0.106708  0.000000 -0.004949  0.000000
-372.686554  6.000000 12.360828 -48.001892  0.159004  0.130789 -1.000000  0.917692  0.000000
-373.343597 12.000000 -43.924690 -49.983704  0.159397  0.169400 -1.000000  0.993879  0.000000
-373.986572 18.000000 -29.066200 -54.048771  0.152302  0.211495 -1.000000  1.000732  0.000000
-374.838318 24.000000 -33.119064 -52.160297  0.160344  0.241649  0.000000  0.085232  0.000000
-375.263123 27.000000 -18.640709 -50.922245  0.161106  0.256013  0.000000  0.008955  0.000000
-375.915375 29.000000 -24.715021 -53.639027  0.162923  0.272114  0.000000  0.002542  0.000000
-376.338165 31.000000 -20.264578 -52.389149  0.167467  0.280764  0.000000  0.002102  0.000000
-376.990967 33.000000 -50.161629 -52.856602  0.174372  0.292522 -1.000000  0.917427  0.000000
-377.640564 33.000000 -40.192638 -55.900623  0.169766  0.298095 -1.000000  0.994496  0.000000
-378.486725 34.000000 -45.007710 -53.009884  0.165539  0.298224  0.000000  0.084646  0.000000
-378.915283 34.000000 -18.497675 -51.853100  0.166228  0.296108  0.000000  0.008897  0.000000
-379.562561 34.000000 -27.712351 -49.734066  0.165559  0.292227  0.000000  0.002274  0.000000
-380.619202 32.000000 -24.872700 -44.927197  0.165267  0.272434  1.000000 -0.914257  0.000000
-381.486572 25.000000 -24.968569 -34.527134  0.167521  0.213803  2.000000 -1.907506  0.000000
-382.139374 18.000000 -20.890419 -32.549801  0.155838  0.170050  1.000000 -1.074992  0.000000
-383.186554  6.000000 -31.644129 -22.473507  0.141976  0.080310  2.000000 -1.921632  0.000000
-384.263916 -7.000000 62.641853 -14.347844  0.130576 -0.012762  3.000000 -2.906905  0.000000
-385.139130 -17.000000 35.289936 -10.188739  0.109940 -0.080136  3.000000 -2.990469  0.000000
-385.786652 -24.000000 43.237614 -4.445568  0.102653 -0.132473  3.000000 -2.997332  0.000000
-386.638733 -33.000000 17.925596 -1.648404  0.088837 -0.189838  3.000000 -2.998656  0.000000
-387.286560 -40.000000 31.254709  4.677546  0.078223 -0.241458  3.000000 -2.998652  0.000000
-388.139130 -48.000000 19.881374 10.306924  0.076067 -0.295949  3.000000 -2.999133  0.000000
-388.786652 -54.000000 104.522575 16.430412  0.068411 -0.339065  3.000000 -2.997479  0.000000
-389.862885 -62.000000 78.760468 24.698156  0.064192 -0.394737  3.000000 -2.998091  0.000000
-390.715454 -66.000000 87.785973 28.199789  0.063617 -0.420604  3.000000 -2.997924  0.000000
-391.363281 -68.000000 37.763046 29.279562  0.064849 -0.432213  2.000000 -2.082906  0.000000
-392.438232 -68.000000 56.310131 26.220175  0.066814 -0.427156  2.000000 -2.005552  0.000000
-393.286713 -63.000000 52.173058 15.477003  0.072966 -0.384021  1.000000 -1.082702  0.000000
-393.938965 -57.000000 64.092468  5.282653  0.081163 -0.335033  1.000000 -1.004925  0.000000
-394.786560 -46.000000 53.017628 -10.797500  0.090445 -0.245777  0.000000 -0.082522  0.000000
-395.862885 -33.000000 66.435768 -18.523581  0.103037 -0.157096  0.000000 -0.004792  0.000000
-396.515198 -28.000000 -31.934692 -19.278046  0.111387 -0.126598  1.000000 -0.916201  0.000000
-397.586639 -20.000000  0.152260 -21.722881  0.127857 -0.074868  1.000000 -0.991641  0.000000
-398.438568 -13.000000 -8.286310 -17.748142  0.134298 -0.041475  1.000000 -0.998097  0.000000
-399.063049 -9.000000 36.317165 -19.911196  0.139650 -0.013481  1.000000 -0.997698  0.000000
-399.938080 -4.000000 16.184986 -15.271144  0.140079  0.006851  1.000000 -0.998136  0.000000
-400.367828 -2.000000 25.215143 -10.961477  0.135473  0.010077  1.000000 -0.997907  0.000000
-400.990967  0.000000 -40.129547 -3.008822  0.138081  0.006018  1.000000 -0.999171  0.000000
-401.415131  0.000000 -15.111988 -0.582124  0.140101  0.001164  1.000000 -0.998665  0.000000
-401.864471  0.000000 -24.918827  2.460726  0.142305 -0.006590  1.000000 -0.998905  0.000000
-402.286652  1.000000 37.796398 10.618157  0.143294 -0.015312  1.000000 -0.997774  0.000000
-402.715363  0.000000 14.017274 15.204996  0.142997 -0.030401  1.000000 -0.998314  0.000000
-403.586548 -3.000000 20.859119 31.068737  0.135247 -0.079736  2.000000 -1.914219  0.000000
-404.663757 -11.000000 -5.022451 50.581299  0.129677 -0.164804  2.000000 -1.991717  0.000000
-405.515198 -14.000000  6.947291 59.009624  0.126983 -0.198296  2.000000 -1.998068  0.000000
-406.163025 -13.000000  3.080786 65.723427  0.122225 -0.205499  2.000000 -1.998657  0.000000
-407.215027 -7.000000 13.600737 71.767403  0.118846 -0.182926  2.000000 -1.998373  0.000000
-408.063293  5.000000  1.761601 73.006279  0.117051 -0.115878  1.000000 -1.082158  0.000000
-409.163025 23.000000 16.758808 72.437073  0.126307 -0.008652  1.000000 -1.004351  0.000000
-410.238556 40.000000 -134.077744 82.207832  0.132160  0.072365  0.000000 -0.084838  0.000000
-411.315125 50.000000 -80.813583 89.378281  0.135447  0.116843  1.000000 -0.922322  0.000000
-412.364471 55.000000 -97.346840 98.451492  0.139288  0.128615  1.000000 -0.992741  0.000000
-413.238495 57.000000 11.509151 102.052254  0.144342  0.132704  0.000000 -0.080217  0.000000
-413.662567 57.000000 -32.349873 102.707062  0.142939  0.131417  1.000000 -0.920833  0.000000
-414.314240 57.000000 -17.937683 105.728539  0.143393  0.125473  1.000000 -0.991100  0.000000
-415.164642 55.000000 -117.165741 106.700409  0.138573  0.111878  1.000000 -0.999230  0.000000
-415.815033 53.000000 -76.280098 108.094635  0.135273  0.097404  1.000000 -0.998987  0.000000
-416.238495 52.000000 -91.613007 110.731094  0.132391  0.086302  2.000000 -1.915371  0.000000
-416.662811 50.000000 21.706495 110.335381  0.131535  0.075321  3.000000 -2.905873  0.000000
-417.319427 49.000000 -23.832100 108.812080  0.135732  0.072460  2.000000 -2.073872  0.000000
-417.739349 50.000000 -8.660843 109.933380  0.136732  0.076120  2.000000 -2.003703  0.000000
-418.163025 50.000000 -120.436806 107.252937  0.136538  0.081448  1.000000 -1.084191  0.000000
-418.815430 50.000000 -75.276871 107.464439  0.134188  0.081028  2.000000 -1.922131  0.000000
-419.238403 49.000000 -91.617859 108.994926  0.130895  0.072097  2.000000 -1.993039  0.000000
-419.886475 44.000000 38.953747 116.212143  0.115724  0.028166  3.000000 -2.912423  0.000000
-420.315186 39.000000 -11.466668 118.547234  0.102000 -0.006110  4.000000 -3.907123  0.000000
-420.943695 31.000000 -0.289247 117.439102  0.104550 -0.051230  4.000000 -3.990099  0.000000
-422.014893 29.000000 -78.459602 106.295662  0.121875 -0.040811  2.000000 -2.166364  0.000000
-422.886566 42.000000 -55.019291 94.825378  0.146884  0.059033  0.000000 -0.180165  0.000000
-423.315277 49.000000 -59.085232 93.082497  0.154459  0.103674  0.000000 -0.013415  0.000000
-423.967682 58.000000 -55.477947 85.155083  0.176424  0.171504 -1.000000  0.916854  0.000000
-425.040466 67.000000 -63.081848 81.522102  0.193261  0.229651 -2.000000  1.910796  0.000000
-426.115112 70.000000 -59.601547 70.045647  0.197818  0.267898 -2.000000  1.994287  0.000000
-427.162720 68.000000 -82.098709 69.046333  0.197142  0.258719  0.000000  0.168689  0.000000
-428.039215 59.000000 -67.245064 61.018745  0.193663  0.223598 -1.000000  0.931297  0.000000
-428.686554 52.000000 -76.699394 61.206757  0.190831  0.183479  1.000000 -0.837311  0.000000
-429.538483 41.000000 22.435158 49.807030  0.182221  0.142249  2.000000 -1.899896  0.000000
-429.963135 37.000000 -16.304487 46.034775  0.175660  0.126392  2.000000 -1.990039  0.000000
-430.615265 31.000000 -8.034823 36.691040  0.169507  0.109778  3.000000 -2.913321  0.000000
-431.043671 27.000000 -60.175354 29.976532  0.168190  0.099628  4.000000 -3.907973  0.000000
-431.463043 23.000000 -36.069210 24.151756  0.169771  0.087693  3.000000 -3.074692  0.000000
-432.115265 17.000000 -47.497013 13.499976  0.169641  0.073553  4.000000 -3.921074  0.000000
-432.538635 13.000000 48.542828  3.823919  0.170425  0.069236  3.000000 -3.074219  0.000000
-433.162811  9.000000 10.984363 -7.074488  0.169224  0.067351  3.000000 -3.004177  0.000000
-434.238007  4.000000 19.618401 -22.421913  0.159714  0.068428  4.000000 -3.914428  0.000000
-435.315369 -5.000000 -20.970577 -38.241001  0.160274  0.046834  4.000000 -3.991694  0.000000
-436.186646 -13.000000  1.188050 -53.969433  0.161245  0.030934  4.000000 -3.998009  0.000000
-436.838226 -19.000000 -9.117756 -62.947109  0.161550  0.013362  4.000000 -3.999000  0.000000
-437.690948 -28.000000 94.100166 -74.105698  0.163439 -0.017622  5.000000 -4.913135  0.000000
-438.340240 -34.000000 54.867226 -87.079453  0.164115 -0.027206  5.000000 -4.990918  0.000000
-439.415527 -40.000000 63.770863 -102.242043  0.158988 -0.032412  5.000000 -4.997196  0.000000
-440.486633 -46.000000 13.835890 -112.902031  0.160425 -0.046606  5.000000 -4.998842  0.000000
-441.339111 -53.000000 39.514668 -119.770355  0.161070 -0.074225  5.000000 -4.998621  0.000000
-441.763367 -58.000000 29.209570 -118.503334  0.156756 -0.106109  5.000000 -4.998951  0.000000
-442.838409 -73.000000 150.876602 -120.209305  0.150065 -0.189631  5.000000 -4.996430  0.000000
-443.486725 -77.000000 102.645164 -103.912331  0.137699 -0.243305 11.000000 -10.494139  0.000000
-444.343506 -77.000000 117.922195 -73.819107  0.122790 -0.299153 11.000000 -10.955222  0.000000
-444.986633 -77.000000  3.036681 -49.817463  0.114173 -0.342375 11.000000 -10.996355  0.000000
-445.863037 -77.000000 51.536880 -25.066120  0.106365 -0.385595 11.000000 -10.998743  0.000000
-446.515442 -77.000000 37.162674 -15.181477  0.099275 -0.402450 11.000000 -10.999264  0.000000
-447.567352 -77.000000 148.267120 -2.812198  0.092629 -0.423205 11.000000 -10.997132  0.000000
-448.640320 -77.000000 101.625114  4.334637  0.082735 -0.435024 11.000000 -10.998015  0.000000
-449.514801 -77.000000 116.240341  6.447659  0.078794 -0.438494 11.000000 -10.997472  0.000000
-450.138550 -77.000000  5.875436  4.230282  0.080015 -0.434852 11.000000 -10.999855  0.000000
-451.019440 -77.000000 52.574490 -0.456852  0.074528 -0.427114 11.000000 -10.999022  0.000000
-451.639282 -77.000000 38.809551 -2.382496  0.072275 -0.423919 11.000000 -10.999228  0.000000
-452.515106 -77.000000 145.498642 -6.504184  0.075575 -0.417049 11.000000 -10.996862  0.000000
-453.138641 -77.000000 100.617241 -13.653828  0.078363 -0.405033 11.000000 -10.997969  0.000000
-454.214813 -77.000000 114.607948 -31.662952  0.076722 -0.374215 11.000000 -10.997761  0.000000
-455.286560 -78.000000 11.442671 -61.213070  0.071207 -0.327329  1.000000 -1.838970  0.000000
-456.139374 -68.000000 48.685444 -49.904827  0.070474 -0.294145  1.000000 -1.069012  0.000000
-456.786407 -61.000000 42.124249 -41.991913  0.074438 -0.270503  2.000000 -1.920626  0.000000
-457.639038 -52.000000 69.373413 -29.338036  0.072925 -0.244323  1.000000 -1.075259  0.000000
-458.286713 -45.000000 53.441444 -21.225309  0.072428 -0.220429  2.000000 -1.920694  0.000000
-459.139038 -36.000000 63.735519 -8.923100  0.074630 -0.192940  2.000000 -1.991058  0.000000
-459.786652 -29.000000 -34.007114 -1.578602  0.082194 -0.167030  1.000000 -1.082825  0.000000
-460.862732 -15.000000 -1.816646 10.030794  0.086948 -0.108474  0.000000 -0.089641  0.000000
-461.715118 -3.000000 -4.659764 20.509750  0.095984 -0.058720  0.000000 -0.006191  0.000000
-462.138641  3.000000  0.152515 25.692659  0.102684 -0.033605  0.000000  0.001157  0.000000
-462.564972  9.000000 -5.906527 30.186689  0.111670  0.000025  0.000000  0.001870  0.000000
-462.986725 15.000000 -0.925348 29.993439  0.120217  0.028845  0.000000  0.002023  0.000000
-463.862732 30.000000 -82.169876 40.146706  0.132124  0.097081 -1.000000  0.916668  0.000000
-464.938965 46.000000 -58.524014 57.335526  0.137103  0.156483 -1.000000  0.994162  0.000000
-465.786560 55.000000 -61.214931 65.722603  0.136276  0.191911 -1.000000  1.000816  0.000000
-466.438568 61.000000 -59.776012 74.202309  0.137275  0.209748  0.000000  0.085614  0.000000
-467.515289 68.000000 -65.365425 81.776535  0.144857  0.234778 -1.000000  0.924850  0.000000
-468.586731 72.000000 -62.381393 86.636864  0.147900  0.247950 -1.000000  0.995425  0.000000
-469.438477 73.000000 -91.273926 90.951347  0.147629  0.245405  0.000000  0.084701  0.000000
-469.862793 73.000000 -79.448997 94.355377  0.149193  0.238989  0.000000  0.008655  0.000000
-470.286469 72.000000 -84.602348 94.093857  0.147716  0.233885  0.000000  0.002082  0.000000
-470.938080 70.000000 -42.563828 93.212158  0.149072  0.224324  0.000000  0.002430  0.000000
-471.367188 69.000000 -60.135220 94.520981  0.148996  0.216191  0.000000  0.001936  0.000000
-472.015045 67.000000 -56.966690 94.647476  0.149241  0.204620  0.000000  0.001851  0.000000
-473.086639 63.000000 -73.098175 91.930641  0.147716  0.187055 -1.000000  0.917411  0.000000
-474.138153 58.000000 -63.306877 84.308441  0.143256  0.173147  0.000000  0.078462  0.000000
-475.015198 52.000000 -70.424767 79.536598  0.142778  0.147820  0.000000  0.007877  0.000000
-475.439117 48.000000 -6.669930 75.893303  0.144646  0.131735  2.000000 -1.829093  0.000000
-475.863678 43.000000 -30.704327 70.382347  0.146241  0.113422  1.000000 -1.068016  0.000000
-476.515533 37.000000 -27.542999 63.976704  0.143337  0.090934  2.000000 -1.920129  0.000000
-477.162964 29.000000 -31.178970 53.758900  0.142571  0.064152  2.000000 -1.991841  0.000000
-478.215118 15.000000 -20.587400 37.711514  0.135481  0.013416  3.000000 -2.914030  0.000000
-479.063446  2.000000 -31.430994 20.893402  0.125425 -0.029932  3.000000 -2.991983  0.000000
-480.163116 -13.000000 93.592194  1.555609  0.101699 -0.079935  4.000000 -3.912047  0.000000
-481.238892 -27.000000 49.786934 -19.476856  0.084625 -0.120374  3.000000 -3.074390  0.000000
-482.314972 -38.000000 56.905407 -36.117954  0.077757 -0.151653  2.000000 -2.088066  0.000000
-483.386566 -48.000000 31.293381 -48.789078  0.072548 -0.184585  2.000000 -2.006215  0.000000
-484.238800 -57.000000 48.336536 -60.374649  0.060920 -0.213538  2.000000 -1.999089  0.000000
-484.890961 -64.000000 39.961903 -66.540100  0.051651 -0.241184  1.000000 -1.082592  0.000000
-485.739990 -74.000000 134.866013 -76.547752  0.052840 -0.277808  1.000000 -1.003781  0.000000
-486.814972 -74.000000 94.958595 -52.557278  0.061489 -0.321598  1.000000 -0.998268  0.000000
-487.462891 -74.000000 107.826279 -44.171505  0.062671 -0.336617  1.000000 -0.997662  0.000000
-488.319366 -74.000000 11.701018 -35.800991  0.061639 -0.351454  1.000000 -0.999723  0.000000
-488.963531 -74.000000 52.878826 -28.862423  0.057243 -0.363631  1.000000 -0.998795  0.000000
-489.815277 -74.000000 41.470325 -26.868862  0.058287 -0.367109  1.000000 -0.998977  0.000000
-490.462891 -74.000000 132.174866 -31.559963  0.057958 -0.358910  1.000000 -0.997067  0.000000
-491.543671 -74.000000 94.025406 -42.826305  0.060832 -0.339012  1.000000 -0.997856  0.000000
-492.386719 -74.000000 106.319450 -54.226971  0.062982 -0.318589  1.000000 -0.997579  0.000000
-493.463440 -74.000000 14.476661 -76.879448  0.067475 -0.277195  1.000000 -0.999515  0.000000
-494.538391 -75.000000 54.488018 -106.996666  0.075574 -0.226266 -2.000000  1.749438  0.000000
-495.415131 -64.000000 49.724285 -101.271278  0.080821 -0.174710 -2.000000  1.980254  0.000000
